o,c,h,l,v,t
100.64,100.91,101.16,100.245,29957,1657720800000
100.81,100.66,101.28,100.29,16208,1657724400000
100.69,101.03,101.195,100.63,17818,1657728000000
101.03,100.7275,101.31,100.64,17261,1657731600000
100.66,100.99,101.15,100.175,24839,1657735200000
101.085,100.64,101.115,100.49,48119,1657738800000
98.85,98.63,98.885,98.39,14209,1657807200000
98.79,99.34,99.34,98.34,25043,1657810800000
99.34,99.175,99.385,98.84,15431,1657814400000
99.175,99.37,99.49,99.03,17188,1657818000000
99.37,99.51,99.91,99.32,21304,1657821600000
99.485,99.3,99.57,99.2,65128,1657825200000
100.43,100.45,100.58,100.14,25512,1657893600000
100.56,100.54,100.7,100.5,6703,1657897200000
100.51,99.88,100.56,99.88,10274,1657900800000
100.03,99.7184,100.21,99.67,4802,1657904400000
99.66,99.495,99.71,99.33,12483,1657908000000
99.425,100.04,100.04,99.21,55584,1657911600000
100.43,99.91,100.43,99.81,23112,1658152800000
99.81,99.26,99.85,99.2,20333,1658156400000
99.24,99.33,99.5,99.02,18073,1658160000000
99.26,98.89,99.34,98.89,13536,1658163600000
98.75,98.3426,98.93,98.3426,15323,1658167200000
98.4,98.11,98.71,97.7,47008,1658170800000
99.26,99.86,100.02,99.15,234470,1658239200000
99.885,100.16,100.39,99.74,120014,1658242800000
100.18,100.75,100.79,100,36341,1658246400000
100.69,100.63,100.76,100.23,22219,1658250000000
100.75,100.765,101.05,100.72,23425,1658253600000
100.72,101.04,101.09,100.57,125216,1658257200000
101.39,101.67,101.76,101.09,27316,1658325600000
101.5,101.43,101.75,101.295,49451,1658329200000
101.645,102.46,102.48,101.64,52093,1658332800000
102.33,101.335,102.47,101.23,20016,1658336400000
101.43,101.6,102.27,101.43,43650,1658340000000
101.64,101.81,102.105,101.64,150924,1658343600000
102.87,102.56,102.87,102.22,8472,1658412000000
102.79,102.7,102.79,102.16,5070,1658415600000
102.62,102.925,103.15,102.62,7512,1658419200000
102.82,102.81,103.01,102.6125,9155,1658422800000
102.92,103.17,103.18,102.92,8238,1658426400000
103.18,103.49,103.595,103.18,54419,1658430000000
103.455,103.7134,103.86,103.15,22666,1658498400000
103.545,103.085,103.68,102.96,25225,1658502000000
103.095,103.035,103.31,102.8323,18126,1658505600000
102.95,102.875,103.22,102.62,13784,1658509200000
102.92,102.5813,102.95,102.33,16730,1658512800000
102.57,103.6,103.68,102.57,68086,1658516400000
104.43,103.995,104.43,103.87,23172,1658757600000
104,104.26,104.51,103.83,23954,1658761200000
104.39,104.03,104.48,103.91,25732,1658764800000
104.04,103.49,104.2,103.43,12882,1658768400000
103.4,103.375,103.59,103.2675,13820,1658772000000
103.3856,103.92,104.13,103.19,82074,1658775600000
101.93,102.83,102.83,101.89,29832,1658844000000
102.84,102.96,103.11,102.63,11194,1658847600000
102.93,103.34,103.35,102.895,12484,1658851200000
103.25,103.59,103.87,103.19,37203,1658854800000
103.7,102.985,103.77,102.9,26213,1658858400000
103.01,103.8,103.88,102.92,79007,1658862000000
104.11,103.87,104.485,103.765,11386,1658930400000
103.96,104.12,104.35,103.82,15821,1658934000000
104.22,104.17,104.275,104,9287,1658937600000
104.19,104.46,104.61,104.19,14245,1658941200000
104.5333,105.35,105.56,104.19,23780,1658944800000
105.51,105.98,106.54,105.35,89640,1658948400000
105.25,106.09,106.1,105.15,24337,1659016800000
106.095,106.16,106.845,105.92,21308,1659020400000
106.23,106.09,106.255,105.96,28516,1659024000000
106.07,107.005,107.005,105.91,46180,1659027600000
107.08,107.11,107.45,106.93,22468,1659031200000
107.125,107.58,107.65,106.86,54549,1659034800000
108.05,107.91,108.568,107.86,28129,1659103200000
108.06,108.2047,108.7,107.88,30050,1659106800000
108.15,108.59,109.05,108.15,15682,1659110400000
108.63,109.46,109.46,108.63,15765,1659114000000
109.47,108.985,109.49,108.87,14151,1659117600000
108.985,107.91,109.28,107.65,106337,1659121200000
106.8,107.57,107.57,106.41,14856,1659362400000
107.64,107.59,107.6953,107.0005,30754,1659366000000
107.63,108.595,108.65,107.42,28207,1659369600000
108.595,108.15,108.65,107.8,25395,1659373200000
107.97,108.35,108.385,107.81,26141,1659376800000
108.3,108.195,108.44,107.97,100577,1659380400000
106.75,106.72,107.19,106.72,12607,1659448800000
106.55,106.57,106.61,105.83,21817,1659452400000
106.63,107.445,107.45,106.6227,6173,1659456000000
107.335,106.375,107.34,106.3,8091,1659459600000
106.38,106.78,107.09,106.31,23376,1659463200000
106.78,106.65,106.78,106.13,76001,1659466800000
107.08,106.96,107.32,106.75,20623,1659535200000
107.105,107.87,107.87,107.08,12545,1659538800000
107.88,108.32,108.45,107.88,12618,1659542400000
108.38,108.64,108.82,108.29,23681,1659546000000
108.63,108.61,108.76,108.35,26508,1659549600000
108.635,107.66,108.66,107.6,105480,1659553200000
106.37,106.405,106.48,105.87,15391,1659621600000
106.41,106.07,106.46,106.07,18635,1659625200000
106.02,106.345,106.48,106.01,21899,1659628800000
106.31,106.43,106.63,106.17,17898,1659632400000
106.4,106.4,106.46,105.855,34397,1659636000000
106.33,106.4,106.81,106.05,97312,1659639600000
105.84,106.29,106.67,105.705,17901,1659708000000
106.26,105.495,106.26,105.28,15264,1659711600000
105.71,105.57,105.97,105.57,13346,1659715200000
105.37,105.315,105.6,105.09,13304,1659718800000
105.3,105.4825,105.63,105.235,13672,1659722400000
105.515,105.62,105.78,105.21,59201,1659726000000
107.255,107.81,108,106.93,18514,1659967200000
107.77,107.33,107.9,106.93,14043,1659970800000
107.33,107.5,107.5,107.11,13062,1659974400000
107.49,107.93,107.93,107.41,20551,1659978000000
107.81,107.46,107.86,107.26,48951,1659981600000
107.46,107.28,107.72,107.1,69295,1659985200000
107.47,107.02,107.64,106.86,24228,1660053600000
106.915,106.86,107.12,106.49,19940,1660057200000
106.78,107.03,107.03,106.62,11807,1660060800000
107.02,107.435,107.44,106.79,18728,1660064400000
107.545,107.24,107.545,107.07,21212,1660068000000
107.175,107.35,107.45,106.94,80101,1660071600000
110.22,110.445,110.74,110.07,19026,1660140000000
110.48,110.28,110.67,109.94,10608,1660143600000
110.305,110.36,110.57,110.03,7995,1660147200000
110.23,110.39,110.49,110.135,9814,1660150800000
110.335,109.73,110.335,109.69,10904,1660154400000
109.69,109.72,109.94,109.525,46314,1660158000000
110.37,111.03,111.29,110.3,18726,1660226400000
110.55,110.49,110.755,110.43,5587,1660230000000
110.47,110.62,110.67,110.265,12543,1660233600000
110.59,110.595,110.66,110.48,11008,1660237200000
110.453,110.2,110.52,110.18,10707,1660240800000
110.15,109.59,110.15,109.55,45222,1660244400000
110.28,110.295,110.88,110.17,16480,1660312800000
110.3,110.37,110.61,110.135,22564,1660316400000
110.43,110.52,110.68,110.32,21539,1660320000000
110.465,110.6643,110.92,110.3,16447,1660323600000
110.75,111.06,111.12,110.59,18593,1660327200000
111,111.13,111.15,110.48,59988,1660330800000
111.13,111.4,111.58,111.13,6597,1660572000000
111.4841,111.89,112.14,111.37,12574,1660575600000
111.99,112.17,112.36,111.99,10108,1660579200000
112.275,112.155,112.38,112.075,5652,1660582800000
112.15,111.935,112.24,111.57,17525,1660586400000
111.995,111.91,112.425,111.86,48529,1660590000000
111.39,111.6,111.66,110.96,13240,1660658400000
111.64,111.855,111.94,111.52,6734,1660662000000
111.86,111.67,112,111.65,8087,1660665600000
111.75,112.05,112.24,111.66,22266,1660669200000
112.045,111.7473,112.26,111.53,14454,1660672800000
111.73,112.1,112.14,111.66,55919,1660676400000
110.785,110.16,111.27,110.09,20565,1660744800000
110.12,110.85,110.97,110.05,30746,1660748400000
110.775,110.84,111.12,110.775,13662,1660752000000
110.76,110.9808,111.16,110.715,7253,1660755600000
111.19,111.14,111.44,111.055,8880,1660759200000
111.15,111.08,111.47,110.925,49501,1660762800000
110.31,110.465,110.76,110.13,36546,1660831200000
110.53,110.865,111.04,110.47,23202,1660834800000
110.91,110.77,111.015,110.58,24745,1660838400000
110.83,110.8,111,110.7533,16093,1660842000000
110.86,111.04,111.04,110.77,12526,1660845600000
111.005,111.07,111.14,110.78,49540,1660849200000
109.99,110.26,110.71,109.69,22240,1660917600000
110.24,110.05,110.465,109.725,20354,1660921200000
110.01,110.4525,110.46,109.87,15008,1660924800000
110.435,110.75,110.78,110.28,26611,1660928400000
110.67,110.245,110.745,110.12,20766,1660932000000
110.2,110.05,110.34,109.875,50884,1660935600000
109.265,108.43,109.265,108.43,9451,1661176800000
108.5,108.48,108.69,108.31,16179,1661180400000
108.175,108.27,108.33,107.9,10038,1661184000000
108.18,108.14,108.24,107.985,11376,1661187600000
108.17,108.135,108.3778,108.04,20034,1661191200000
108.34,107.99,108.58,107.75,62895,1661194800000
108.155,106.51,108.2,106.445,28951,1661263200000
106.3969,106.21,106.53,106.01,13424,1661266800000
106.14,106.54,106.54,106.14,11649,1661270400000
106.57,106.53,106.66,106.36,9962,1661274000000
106.47,106.56,106.76,106.38,10940,1661277600000
106.63,106.91,107.14,106.58,48699,1661281200000
107,106.89,107.175,106.72,14244,1661349600000
106.995,107.85,107.89,106.99,11349,1661353200000
107.88,107.27,107.88,107.185,9328,1661356800000
107.445,107.13,107.7,107.07,12248,1661360400000
107.045,107.99,107.99,106.98,38646,1661364000000
107.975,107.5,108.065,107.41,47930,1661367600000
108.15,108.39,108.8,108.07,10951,1661436000000
108.395,108.12,108.7,107.805,14979,1661439600000
108.12,108.22,108.35,107.835,18427,1661443200000
108.28,108.46,108.51,108.18,16090,1661446800000
108.435,108.37,108.5,108.13,14213,1661450400000
108.33,108.97,108.97,108.32,29619,1661454000000
108.39,106.52,108.51,106.52,12371,1661522400000
106.33,106.01,106.44,106.01,11546,1661526000000
105.88,105.43,105.89,105.35,6820,1661529600000
105.41,104.93,105.48,104.85,14809,1661533200000
104.99,104.48,105.35,104.41,18549,1661536800000
104.49,104.38,104.63,104.17,49569,1661540400000
103.69,102.96,103.8,102.79,15335,1661781600000
103.26,103.23,103.261,102.86,10003,1661785200000
103.54,103.543,103.795,103.28,5572,1661788800000
103.7,103.815,103.86,103.35,5656,1661792400000
103.76,103.89,103.94,103.5,14396,1661796000000
104.04,104,104.06,103.505,57057,1661799600000
104.3743,103.29,104.3743,102.72,11052,1661868000000
103.38,103.66,103.76,103.25,6037,1661871600000
103.685,103.54,103.82,103.53,7847,1661875200000
103.57,103.645,103.645,103.38,11132,1661878800000
103.54,103.8,103.915,103.46,12656,1661882400000
103.9,104.04,104.25,103.57,53488,1661886000000
104.05,103.75,104.05,103.26,11369,1661954400000
103.635,103.445,103.635,103.31,6598,1661958000000
103.39,103.09,103.39,103.09,6833,1661961600000
103.125,103.08,103.29,102.94,8831,1661965200000
103.12,103.01,103.13,102.9,13265,1661968800000
103.01,102.79,103.43,102.75,51378,1661972400000
102.26,101.68,102.53,101.33,20353,1662040800000
101.66,102.215,102.55,101.41,14410,1662044400000
102.29,101.83,102.43,101.79,16078,1662048000000
101.87,102.25,102.53,101.87,22219,1662051600000
102.25,102.47,102.56,102.04,18859,1662055200000
102.555,102.61,102.73,102,80019,1662058800000
102.66,103.815,103.815,102.66,12894,1662127200000
103.815,104.18,104.18,103.81,8063,1662130800000
104.06,102.61,104.06,102.61,12622,1662134400000
102.51,101.715,102.51,101.55,22802,1662138000000
101.82,101.63,102.1,101.63,23230,1662141600000
101.62,101.43,101.82,100.72,63606,1662145200000
101.16,100.88,101.255,100.13,18921,1662472800000
100.9159,100.69,101.01,100.54,18381,1662476400000
100.67,100.2,100.67,99.81,13588,1662480000000
100.16,100.08,100.43,99.83,14581,1662483600000
100.29,100.19,100.48,100.1,12305,1662487200000
100.23,100.35,100.47,99.87,41209,1662490800000
101.02,101.35,101.41,100.62,26546,1662559200000
101.23,101.88,101.94,101.23,11410,1662562800000
101.835,102.165,102.25,101.565,9646,1662566400000
102.24,103.04,103.04,102.21,9395,1662570000000
103.11,103.325,103.36,102.98,15052,1662573600000
103.31,103.28,103.63,103.09,42704,1662577200000
102.91,104.33,104.33,102.91,12211,1662645600000
104.33,104.69,104.69,104.15,7632,1662649200000
104.57,104.74,104.81,103.8701,18114,1662652800000
104.68,104.56,104.93,104.51,8497,1662656400000
104.59,104.49,104.93,104.4463,6781,1662660000000
104.5,104.93,105.015,104.36,36451,1662663600000
105.85,105.88,106.22,105.62,9278,1662732000000
105.85,106,106.03,105.74,9106,1662735600000
105.84,106.02,106.02,105.58,9377,1662739200000
105.98,106.07,106.086,105.82,17227,1662742800000
106.04,106.21,106.445,105.985,46651,1662746400000
106.26,106.45,106.82,106.25,69492,1662750000000
107.96,107.85,108.27,107.58,12211,1662991200000
107.91,107.41,108.02,107.1,9332,1662994800000
107.36,107.53,107.617,107.25,9813,1662998400000
107.52,107.58,107.73,107.34,8792,1663002000000
107.51,107.5,107.58,107.22,11602,1663005600000
107.52,107.11,107.616,106.79,57996,1663009200000
105.1,105.1525,105.7375,105,33699,1663077600000
105.145,105.305,105.51,105.0901,33948,1663081200000
105.13,105.05,105.325,104.69,31893,1663084800000
104.98,104.93,105.255,104.93,7674,1663088400000
104.89,104.8,105.01,104.68,11245,1663092000000
104.84,104.06,104.905,103.98,90147,1663095600000
103.395,103.82,103.87,102.675,17491,1663164000000
103.95,103.82,104.31,103.6625,24597,1663167600000
103.84,103.59,103.88,103.33,19709,1663171200000
103.66,103.15,103.78,102.94,18091,1663174800000
103.135,102.9,103.48,102.76,24117,1663178400000
102.92,103.58,103.6,102.45,83362,1663182000000
104.8299,104.6,105.36,104.38,82718,1663250400000
104.64,104.715,105,104.32,45682,1663254000000
104.88,105.0657,105.0657,104.58,39463,1663257600000
105.2,105.2,105.4,104.89,30902,1663261200000
105.2,104.865,105.2,104.81,35903,1663264800000
104.88,105.26,105.37,104.54,124521,1663268400000
101.78,102.63,102.86,101.715,23441,1663336800000
102.55,102.415,102.78,102.15,59730,1663340400000
102.35,102.37,102.37,101.98,29674,1663344000000
102.37,101.86,102.43,101.85,21743,1663347600000
101.86,102.4115,102.45,101.4,33475,1663351200000
102.41,102.64,102.935,102.15,85890,1663354800000
102.79,103.3525,103.54,102.435,18510,1663596000000
103.4,103.51,103.9,103.36,23529,1663599600000
103.65,104.22,104.22,103.49,18148,1663603200000
104.15,103.915,104.15,103.71,7840,1663606800000
103.87,103.63,103.87,103.48,17327,1663610400000
103.69,104.51,104.55,103.69,55061,1663614000000
102.2,101.73,102.38,101.59,12380,1663682400000
101.85,102.09,102.13,101.63,6452,1663686000000
102.15,101.405,102.17,101.35,6896,1663689600000
101.365,100.69,101.365,100.69,9914,1663693200000
100.72,101.125,101.15,100.7,9627,1663696800000
101.13,101.17,101.65,101.04,47630,1663700400000
102.04,102.07,102.27,101.93,9180,1663768800000
101.66,101.52,101.82,101.52,6098,1663772400000
101.52,101.81,102.045,101.45,12040,1663776000000
101.715,101.875,101.875,101.39,7546,1663779600000
101.79,101.78,102.28,100.36,23861,1663783200000
101.83,99.63,101.87,99.63,61792,1663786800000
98.13,98.2,98.7394,97.89,7426,1663855200000
98.1,97.95,98.28,97.85,9454,1663858800000
97.69,97.75,98.12,97.57,8517,1663862400000
97.63,97.58,97.63,97.27,13537,1663866000000
97.595,97.98,98.03,97.37,49459,1663869600000
98,98.11,98.3499,97.93,65648,1663873200000
97.11,97.315,97.83,97.11,20079,1663941600000
97.33,97.54,97.84,97.32,15903,1663945200000
97.48,97.66,97.67,97.18,29880,1663948800000
97.61,97.545,97.96,97.4747,31715,1663952400000
97.56,97.5,97.65,97.19,62923,1663956000000
97.55,98.08,98.31,97.55,59931,1663959600000
97.6,97.75,97.825,96.92,29407,1664200800000
97.755,97.62,97.84,97.35,41486,1664204400000
97.52,97.345,97.52,96.945,24035,1664208000000
97.33,96.5,97.33,96.43,30733,1664211600000
96.51,97.53,97.585,96.51,71988,1664215200000
97.58,97.42,98.45,97.41,95742,1664218800000
97.56,97.25,97.57,96.78,25124,1664287200000
97.25,96.6406,97.43,96.43,25553,1664290800000
96.54,95.85,96.54,95.53,24175,1664294400000
95.79,95.4127,95.79,95.23,26013,1664298000000
95.445,96.05,96.19,95.25,26461,1664301600000
96.06,96.12,96.23,95.66,51357,1664305200000
96.9,96.73,97.22,96.36,19875,1664373600000
96.57,97.55,97.66,96.57,20515,1664377200000
97.54,97.38,98.03,97.2659,20834,1664380800000
97.405,97.34,97.66,97.26,20070,1664384400000
97.39,97.65,97.67,97.3,24029,1664388000000
97.62,98.26,98.5,97.62,77340,1664391600000
96.94,96.82,97.09,96.44,23164,1664460000000
96.8,96.92,97.07,96.53,19634,1664463600000
96.95,96.65,97.26,96.65,17081,1664467200000
96.68,96.51,96.68,96.27,15390,1664470800000
96.38,96.48,96.96,96.35,18692,1664474400000
96.58,96.86,97.05,96.47,53847,1664478000000
97.08,97.085,97.43,96.52,40445,1664546400000
97.14,97.18,97.76,96.96,13830,1664550000000
97.01,97.15,97.15,96.63,128143,1664553600000
97.1384,96.22,97.1384,96.22,28596,1664557200000
96.21,95.52,96.42,95.45,40913,1664560800000
95.52,95.03,95.84,94.87,89391,1664564400000
96.1,97.01,97.23,96.075,22332,1664805600000
97.055,97.03,97.61,96.9,19165,1664809200000
97.22,96.78,97.35,96.7,11417,1664812800000
96.96,97.36,97.36,96.73,13341,1664816400000
97.37,97.98,98.02,97.37,23807,1664820000000
97.9,97.41,97.9,97.05,114068,1664823600000
99.66,99.11,99.74,98.9781,28427,1664892000000
99.31,99.15,99.44,99.12,17053,1664895600000
99.18,99.16,99.83,99.135,17798,1664899200000
99.29,99.1,99.32,98.71,19818,1664902800000
99.16,99.08,99.23,98.78,22677,1664906400000
99.01,99.24,99.29,98.51,97064,1664910000000
97.955,97.305,98.14,97.03,21807,1664978400000
97.24,97.83,97.895,97.08,14393,1664982000000
97.81,98.3,98.38,97.77,13547,1664985600000
98.185,98.55,98.68,98.185,8896,1664989200000
98.54,98.42,98.83,98.31,23089,1664992800000
98.46,98.21,98.67,97.98,68393,1664996400000
97.13,97.145,97.145,96.32,15002,1665064800000
96.98,97.3,97.56,96.91,23483,1665068400000
97.29,97.65,97.8,96.8801,20789,1665072000000
97.68,97.58,98.04,97.58,17170,1665075600000
97.635,97.41,97.635,97.01,27839,1665079200000
97.32,97.75,97.8,97.07,59173,1665082800000
94.82,94.62,94.94,94.06,13365,1665151200000
94.71,94.15,94.76,94.03,6522,1665154800000
94.395,93.94,94.51,93.94,5323,1665158400000
94.075,93.91,94.44,93.91,3306,1665162000000
93.93,93.87,93.97,93.71,7491,1665165600000
94.0076,93.94,94.12,93.6,36730,1665169200000
94.51,94.93,95.47,94.49,15838,1665410400000
94.98,94.88,95.13,94.51,14788,1665414000000
94.66,93.94,94.82,93.91,8905,1665417600000
93.99,94.6448,94.839,93.99,10801,1665421200000
94.67,94.47,94.68,94.31,21589,1665424800000
94.41,94.4,94.72,94.2,62390,1665428400000
93.62,94.59,94.7,93.303,13205,1665496800000
94.585,95.32,95.4,94.52,26421,1665500400000
95.3369,95.45,95.65,95.16,44616,1665504000000
95.46,95.18,95.6,95.02,14258,1665507600000
95.16,94.34,95.41,94.34,20081,1665511200000
94.27,94.67,94.93,93.82,101301,1665514800000
94.03,93.99,94.405,93.98,9066,1665583200000
94.02,93.83,94.1,93.57,10796,1665586800000
94.02,93.51,94.07,93.32,6999,1665590400000
93.61,93.607,93.619,93.45,6365,1665594000000
93.73,93.59,93.99,93.48,11623,1665597600000
93.62,93.4,93.835,93.27,58293,1665601200000
91.25,92.02,92.02,91.25,29993,1665669600000
91.83,93.4525,94.24,91.83,34852,1665673200000
93.545,93.92,93.955,93.25,14252,1665676800000
94.06,94.3825,94.675,94.02,11087,1665680400000
94.455,94.775,94.775,94.2,20716,1665684000000
94.74,94.55,95.025,94.15,72891,1665687600000
94.58,94.65,94.8,94.11,48022,1665756000000
94.95,94.9,95.285,94.56,35126,1665759600000
94.855,94.99,95.52,94.68,34428,1665763200000
95.08,95.41,95.41,94.91,31961,1665766800000
95.35,95.03,95.35,94.85,32599,1665770400000
95.03,95.07,95.385,94.89,86998,1665774000000
96.83,96.765,97.11,96.47,18719,1666015200000
97.01,97.29,97.345,96.665,42814,1666018800000
97.22,97.02,97.35,96.88,18997,1666022400000
96.825,97.265,97.31,96.82,24927,1666026000000
97.22,97.13,97.365,96.91,46797,1666029600000
97.1,97.32,97.35,96.89,116959,1666033200000
99.59,99.71,99.88,99.13,26715,1666101600000
99.71,98.85,99.71,98.555,34844,1666105200000
98.73,99.065,99.215,98.66,15319,1666108800000
99.025,99.18,99.23,98.54,26700,1666112400000
99.1825,98.3,99.1825,98.1,23887,1666116000000
98.2768,99.25,99.32,98.18,82701,1666119600000
98.555,98.66,99.04,98.478,17996,1666188000000
98.68,98.64,99.02,98.41,21479,1666191600000
98.53,97.94,98.84,97.76,69482,1666195200000
97.935,97.8,97.97,97.59,28612,1666198800000
97.805,98.425,98.45,97.74,39444,1666202400000
98.51,98.23,98.68,98.06,105645,1666206000000
98.07,97.93,98.7,97.72,16088,1666274400000
97.94,96.83,97.95,96.83,15167,1666278000000
96.77,95.88,96.77,95.86,7569,1666281600000
95.89,95.78,95.89,95.62,9452,1666285200000
95.78,95.95,96.08,95.49,23962,1666288800000
95.935,96.07,96.16,95.43,54774,1666292400000
96.635,96.25,97.1,95.83,16722,1666360800000
96.07,96.835,96.915,95.91,9516,1666364400000
97.095,97.2,97.37,96.71,13100,1666368000000
97.33,97.555,97.6,97.12,10812,1666371600000
97.54,97.525,97.69,97.24,13801,1666375200000
97.58,97.51,97.915,97.27,54894,1666378800000
98.44,97.61,98.63,97.315,32359,1666620000000
97.88,98.155,98.155,97.71,14481,1666623600000
98.12,97.83,98.12,97.715,9220,1666627200000
97.63,97.83,97.86,97.4401,5089,1666630800000
97.75,98.05,98.05,97.59,6973,1666634400000
98.1,97.85,98.1872,97.73,34999,1666638000000
97.71,98.48,98.74,97.02,32790,1666706400000
98.42,98.37,98.76,98.02,31686,1666710000000
98.32,98.7,98.86,98.32,36608,1666713600000
98.75,99,99.43,98.7,27076,1666717200000
99.02,99.06,99.14,98.79,12898,1666720800000
99.04,99.22,99.275,98.78,66521,1666724400000
99.55,100.01,100.315,99.07,14207,1666792800000
100.27,100.74,100.87,100.2,9584,1666796400000
100.85,100.33,101.0466,100.33,21851,1666800000000
100.14,100.035,100.305,99.852,29582,1666803600000
99.985,99.86,100.42,99.86,54984,1666807200000
99.8,98.97,99.8,98.96,82194,1666810800000
100.04,100.27,100.64,99.765,28484,1666879200000
100.08,99.39,100.27,99.27,18105,1666882800000
99.51,99.675,99.785,99.28,18385,1666886400000
99.69,99.535,100.11,99.515,18470,1666890000000
99.565,99.18,99.67,99.0625,23890,1666893600000
99.16,98.97,99.35,98.87,64513,1666897200000
102.34,103.605,103.605,100.42,51974,1666965600000
103.605,103.44,104.115,102.63,30501,1666969200000
103.35,103.5,103.99,103.235,24308,1666972800000
103.55,101.65,103.965,101.37,60321,1666976400000
101.74,101.63,102.39,101.51,64608,1666980000000
101.5,101.01,101.61,100.66,126159,1666983600000
99.31,99.82,99.91,99.12,26167,1667224800000
99.945,100.11,100.6,99.945,13896,1667228400000
100.125,99.685,100.38,99.54,26575,1667232000000
99.61,99.96,100.155,99.61,12203,1667235600000
99.98,99.48,99.99,99.335,19302,1667239200000
99.46,99.23,99.84,99.1,64823,1667242800000
98.31,97.62,98.93,97.47,30279,1667311200000
97.645,97.58,97.74,97.25,16923,1667314800000
97.665,97.92,98.125,97.38,17673,1667318400000
97.88,98.355,98.41,97.75,17891,1667322000000
98.43,97.67,98.5,97.425,24905,1667325600000
97.68,97.2,97.76,96.88,105506,1667329200000
95.7,96.5,96.5,95.7,19029,1667397600000
96.46,96.7,96.78,96.46,19005,1667401200000
96.7,96.63,96.7,96.365,13021,1667404800000
96.705,97.155,97.21,96.63,14491,1667408400000
97.22,95.87,97.75,95.68,60424,1667412000000
95.88,94.77,96.52,94.57,95076,1667415600000
93.05,94.235,94.43,92.87,32393,1667484000000
94.245,93.905,94.255,93.67,25989,1667487600000
93.91,94.335,94.46,93.885,22537,1667491200000
94.305,94.175,94.4,93.98,23025,1667494800000
94.175,94.68,95.02,94.05,39321,1667498400000
94.75,94.71,94.88,94.53,85887,1667502000000
97.38,98.15,98.42,96.74,22687,1667570400000
98.28,97.3353,98.425,97.3353,29594,1667574000000
97.27,97.41,97.65,97.08,10689,1667577600000
97.43,97.34,97.68,97.14,13515,1667581200000
97.45,98.09,98.15,97.21,13189,1667584800000
97.98,98.78,98.78,97.9,56656,1667588400000
97.98,98.81,98.81,97.98,14983,1667833200000
98.64,98.6,98.83,98.53,8787,1667836800000
98.6,99.04,99.28,98.47,9379,1667840400000
99.23,99.59,99.59,99.19,16429,1667844000000
99.6,99.85,100.08,99.6,17605,1667847600000
99.76,100.51,100.52,99.76,59675,1667851200000
101.07,100.9,101.21,100.69,12144,1667919600000
101,101.11,101.5,100.94,21649,1667923200000
101.05,101.305,101.38,100.96,6457,1667926800000
101.36,100.835,101.58,100.55,8322,1667930400000
100.93,100.83,100.93,100.215,9186,1667934000000
100.88,100.38,101.36,100.26,56615,1667937600000
99.56,100.12,100.88,99.56,10261,1668006000000
100.19,100.44,100.77,100.19,7661,1668009600000
100.47,100.17,100.52,99.99,6372,1668013200000
100.17,99.315,100.17,99.16,8719,1668016800000
99.24,98.65,99.285,98.55,22896,1668020400000
98.71,99.12,99.22,98.71,57203,1668024000000
102.88,102.82,102.96,101.815,29081,1668092400000
102.465,102.67,102.82,102.46,19374,1668096000000
102.64,101.2,102.64,101.04,28022,1668099600000
101.21,101.63,101.69,101.055,24318,1668103200000
101.54,101.71,101.92,101.5,16645,1668106800000
101.625,102.27,102.4,101.545,86119,1668110400000
102.72,103.31,103.5,102.72,30177,1668178800000
103.32,103.68,103.68,102.99,13148,1668182400000
103.51,103.86,104.19,103.4,38465,1668186000000
103.89,104.55,104.65,103.89,40333,1668189600000
104.515,104.965,105.075,104.45,23961,1668193200000
104.94,104.29,104.94,103.88,85639,1668196800000
103.85,104.465,104.48,103.85,15191,1668438000000
104.555,104.59,104.74,104.0801,18300,1668441600000
104.73,104.805,104.97,104.61,12985,1668445200000
104.825,105.1,105.27,104.825,10870,1668448800000
105.125,104.86,105.125,104.6689,24235,1668452400000
104.7401,104.33,105,104.26,95266,1668456000000
106.58,106.56,106.91,105.8,36095,1668524400000
106.485,106.75,107.01,106.25,19937,1668528000000
106.68,106.06,106.68,105.98,22409,1668531600000
106.06,104.72,106.14,104.28,18163,1668535200000
104.63,104.81,105.24,104.38,38084,1668538800000
104.74,104.66,105.02,104.31,85416,1668542400000
104.695,105.49,105.57,104.695,9645,1668610800000
105.42,105.59,105.89,105.42,7882,1668614400000
105.55,105.54,105.58,105.22,8258,1668618000000
105.4,105.0021,105.53,105.0021,7939,1668621600000
105.13,105.395,105.4,105.06,10264,1668625200000
105.45,104.94,105.53,104.81,48473,1668628800000
104.2689,104.47,104.82,104.06,11712,1668697200000
104.45,104.26,104.45,104.07,6121,1668700800000
104.64,104.765,104.93,104.52,7167,1668704400000
104.75,104.83,104.9025,104.71,7710,1668708000000
104.9,104.61,104.9,104.3575,12133,1668711600000
104.62,104.59,104.7,104.11,42064,1668715200000
105.76,105.51,105.87,105.34,13205,1668783600000
105.49,105.25,105.49,104.97,11816,1668787200000
105.1685,104.845,105.18,104.61,15609,1668790800000
104.89,105.39,105.39,104.865,16767,1668794400000
105.48,105.765,105.93,105.42,19635,1668798000000
105.71,106.03,106.38,105.6226,62321,1668801600000
106.115,106.44,106.7,106.11,9916,1669042800000
106.43,105.98,106.43,105.98,7912,1669046400000
106.08,105.81,106.33,105.68,10596,1669050000000
105.89,105.555,105.89,105.46,23625,1669053600000
105.555,105.21,105.72,105.14,19883,1669057200000
105.275,105.08,105.49,104.93,72897,1669060800000
105.87,105.94,106.655,105.56,36876,1669129200000
106.065,105.95,106.09,105.67,21608,1669132800000
105.84,105.75,105.84,105.61,13313,1669136400000
105.72,105.63,105.77,105.5,31371,1669140000000
105.64,105.6,105.87,105.46,44296,1669143600000
105.6,106.03,106.375,105.57,96712,1669147200000
105.95,106.25,106.43,105.76,27583,1669215600000
106.26,106.14,106.3,106.045,11616,1669219200000
106.13,106.37,106.78,106.115,17380,1669222800000
106.27,106.475,106.54,106.255,15047,1669226400000
106.45,106.33,106.65,106.22,31610,1669230000000
106.35,106.14,106.64,106.14,46828,1669233600000
106.07,106.13,106.29,105.78,22579,1669388400000
106.16,106.52,106.5514,106.03,19642,1669392000000
106.48,105.97,106.505,105.84,31990,1669395600000
105.91,105.91,105.91,105.91,17968,1669399200000
105.91,105.91,105.91,105.91,0,1669406400000
104.705,104.4,105.02,104.35,17186,1669647600000
104.44,104.1,104.52,104,19938,1669651200000
103.97,103.78,104.14,103.74,18791,1669654800000
103.76,103.64,103.8,103.55,15243,1669658400000
103.635,103.52,103.7592,103.49,19962,1669662000000
103.5,103.57,103.62,103.24,66071,1669665600000
103.96,103.74,104.1,103.74,11948,1669734000000
103.755,103.2503,103.755,103.015,19393,1669737600000
103.3,103.58,103.65,103.25,9892,1669741200000
103.61,103.4,103.61,103.31,11938,1669744800000
103.42,103.12,103.55,102.93,35580,1669748400000
103.11,103.25,103.41,103.08,52930,1669752000000
102.02,101.77,102.18,101.5,11215,1669820400000
101.78,102.25,102.54,101.725,11011,1669824000000
102.34,102.61,102.61,102.19,14612,1669827600000
102.59,103.83,103.84,102.57,13307,1669831200000
103.825,105.42,105.42,103.74,20588,1669834800000
105.49,106.14,106.18,105.49,72868,1669838400000
107.44,106.86,107.74,106.505,16917,1669906800000
107,106.95,107.105,106.71,10698,1669910400000
107.08,107.25,107.25,106.5652,9319,1669914000000
107.16,106.87,107.3662,106.82,17178,1669917600000
106.83,106.94,106.99,106.705,14651,1669921200000
106.94,107.09,107.375,106.68,43345,1669924800000
106.56,106.9,106.9,106.535,7331,1669993200000
106.9,107.33,107.44,106.9,11510,1669996800000
107.3,107.39,107.63,107.3,9216,1670000400000
107.335,107.69,107.71,107.335,11854,1670004000000
107.82,108.3,108.3625,107.67,14505,1670007600000
108.35,107.99,108.55,107.91,55250,1670011200000
105.68,106.85,106.87,105.68,17465,1670252400000
106.82,106.46,106.93,106.1959,13343,1670256000000
106.285,106.47,106.68,106.28,14749,1670259600000
106.42,106.585,106.8,106.4,9402,1670263200000
106.63,106.89,106.895,106.515,9885,1670266800000
106.865,106.75,106.89,106.57,43897,1670270400000
106.375,106,106.375,105.57,28916,1670338800000
105.92,106.12,106.2,105.92,12924,1670342400000
106.15,106.105,106.39,105.805,33641,1670346000000
106.07,105.9,106.14,105.54,10839,1670349600000
105.84,105.97,105.97,105.37,17983,1670353200000
105.95,106.94,107.08,105.95,80037,1670356800000
106.9,107.88,108.16,106.87,13307,1670425200000
107.9,107.39,107.9,107.27,10371,1670428800000
107.375,107.325,107.39,107.01,12196,1670432400000
107.34,106.805,107.375,106.805,12803,1670436000000
106.77,106.32,106.795,106.23,16675,1670439600000
106.32,106.29,106.545,106.202,40763,1670443200000
106.95,107.605,107.7,106.95,14064,1670511600000
107.64,107.515,107.64,107.045,17236,1670515200000
107.6,107.71,107.89,107.49,8720,1670518800000
107.76,107.515,107.82,107.465,9545,1670522400000
107.47,107.67,107.805,107.14,19332,1670526000000
107.57,107.93,107.94,107.27,63837,1670529600000
108.065,108.65,108.74,107.89,41841,1670598000000
108.725,108.72,108.98,108.26,17492,1670601600000
108.725,108.41,108.92,108.395,23087,1670605200000
108.33,108.14,108.42,107.94,16297,1670608800000
108.265,108.5,108.51,107.99,40902,1670612400000
108.48,108.07,108.83,107.8,121112,1670616000000
108,108.15,108.255,107.49,13685,1670857200000
108.03,108.415,108.6,108.03,15955,1670860800000
108.52,108.37,108.725,108.32,10721,1670864400000
108.37,107.995,108.59,107.96,12898,1670868000000
108.025,108.055,108.08,107.744,19341,1670871600000
107.99,108.14,108.35,107.88,63871,1670875200000
110.82,109.545,110.82,109.45,22155,1670943600000
109.7,109.12,109.875,108.64,18617,1670947200000
108.9093,108.045,109.125,107.97,15230,1670950800000
108.14,108.15,108.6,107.868,42848,1670954400000
108.22,107.925,108.48,107.925,37929,1670958000000
107.96,108.28,108.54,107.578,101358,1670961600000
109.98,109.61,110.28,109.425,19297,1671030000000
109.57,109.0953,109.63,109.05,30036,1671033600000
109.15,109.475,109.475,109.01,23534,1671037200000
109.52,110.17,110.18,109.52,14906,1671040800000
109.87,108.36,109.87,107.23,42365,1671044400000
108.23,108.24,109.57,107.99,95499,1671048000000
107.5,108.02,108.55,107.415,46312,1671116400000
108.05,107.64,108.145,107.52,13598,1671120000000
107.66,107.94,108.085,107.62,11676,1671123600000
107.84,107.67,107.91,107.44,13098,1671127200000
107.67,108.04,108.04,107.51,15380,1671130800000
108.145,107.65,108.215,107.32,56415,1671134400000
107.96,107.74,108.26,107.08,44922,1671202800000
107.77,107.41,108.09,107.41,20578,1671206400000
107.41,106.92,107.47,106.87,25627,1671210000000
106.91,106.61,107.17,106.39,27009,1671213600000
106.675,107.355,107.4,106.635,46594,1671217200000
107.3,107.41,107.755,107.02,89365,1671220800000
107.08,107.54,108.36,107.06,42012,1671462000000
107.64,107.02,107.74,106.85,21190,1671465600000
106.955,106.74,107.23,106.615,14688,1671469200000
106.66,106.235,107.06,106.075,19612,1671472800000
106.08,106,106.375,105.87,28991,1671476400000
105.9,106.19,106.37,105.78,68967,1671480000000
106.92,107.64,107.91,106.9,28497,1671548400000
107.56,107.4,107.68,107.125,13683,1671552000000
107.62,107.77,107.89,107.435,12023,1671555600000
107.85,108.03,108.13,107.79,16020,1671559200000
107.89,107.49,108.01,107.47,12984,1671562800000
107.46,107.09,107.67,107.08,52826,1671566400000
108.95,109.91,109.91,108.95,19967,1671634800000
109.94,110.08,110.2,109.82,21697,1671638400000
110,109.54,110.06,109.41,25434,1671642000000
109.55,110.01,110.02,109.29,32782,1671645600000
110.01,110.175,110.33,109.95,45776,1671649200000
110.15,110.64,110.64,109.72,131026,1671652800000
109.45,109.1886,109.875,109.18,18668,1671721200000
109.175,108.65,109.225,108.65,11589,1671724800000
108.8584,108.025,108.8584,107.89,11475,1671728400000
107.85,107.9577,108.05,107.46,12468,1671732000000
107.93,108.1401,108.19,107.605,27480,1671735600000
108.235,108.56,108.85,108.11,51223,1671739200000
108.81,108.66,109.02,108.35,9975,1671807600000
108.73,109.105,109.11,108.59,22925,1671811200000
109.24,109.36,109.55,109.13,8516,1671814800000
109.43,109.231,109.6,109.22,7636,1671818400000
109.28,109.82,109.82,109.24,10208,1671822000000
109.87,110,110.2,109.46,53352,1671825600000
109.96,110.055,110.79,109.835,11804,1672153200000
110.24,110.23,110.32,110.06,13707,1672156800000
110.43,110.72,110.72,110.385,8269,1672160400000
110.72,110.335,110.765,110.32,15053,1672164000000
110.503,110.55,110.61,110.29,8099,1672167600000
110.77,110.85,111.02,110.67,19550,1672171200000
111.3,110.22,111.5825,110.22,11681,1672239600000
110.215,109.875,110.215,109.82,7682,1672243200000
109.77,109.88,109.88,109.47,6880,1672246800000
110.04,109.74,110.13,109.71,8868,1672250400000
109.785,109.93,110.15,109.67,12799,1672254000000
109.9,109.17,109.9,109.012,47833,1672257600000
110.41,110.25,110.6,110.22,14384,1672326000000
110.22,110.6,110.83,109.74,11399,1672329600000
110.64,110.86,110.86,110.595,8229,1672333200000
110.83,111.0782,111.0782,110.69,6535,1672336800000
111.1172,110.99,111.17,110.89,10114,1672340400000
110.94,110.73,111.08,110.51,44902,1672344000000
110.3273,109.82,110.44,109.82,6050,1672412400000
109.91,110,110.1,109.55,10061,1672416000000
110.11,109.63,110.15,109.46,16373,1672419600000
109.58,109.287,109.68,109.02,17684,1672423200000
109.26,109.177,109.47,109.065,8061,1672426800000
109.17,109.98,109.98,109.08,51620,1672430400000
110.42,110.42,110.68,109.71,29695,1672758000000
110.53,110.2,110.59,109.66,20889,1672761600000
110.16,109.89,110.305,109.76,18126,1672765200000
109.82,110.34,110.34,109.82,10868,1672768800000
110.275,109.995,110.33,109.45,19146,1672772400000
109.99,110.3,110.65,109.94,64574,1672776000000
111.63,111.76,111.99,111.17,19456,1672844400000
111.83,112.21,112.21,111.4293,13622,1672848000000
111.98,111.38,112.06,111.38,9077,1672851600000
111.38,111.015,111.77,111.015,13612,1672855200000
110.83,110.7,111.1808,110.385,41141,1672858800000
110.69,111.19,111.23,110.31,54207,1672862400000
109.56,110.66,110.74,109.56,19519,1672930800000
110.8,111.385,111.61,110.65,49531,1672934400000
111.385,111.88,112.06,111.385,40191,1672938000000
112.02,112.54,113.03,112.02,45359,1672941600000
112.34,112.54,112.67,112.1587,16625,1672945200000
112.42,112.11,112.42,111.84,54705,1672948800000
113.87,113.93,113.93,113.33,16011,1673017200000
113.92,114.15,114.4,113.69,16490,1673020800000
114.145,113.4,114.145,113.34,18602,1673024400000
113.46,113.66,113.89,113.435,13625,1673028000000
113.71,113.91,113.94,113.63,15579,1673031600000
113.97,114.11,114.22,113.86,54972,1673035200000
114.12,115.635,115.67,114.12,19448,1673276400000
115.63,115.43,115.68,115.16,4573,1673280000000
115.31,114.85,115.445,114.85,7585,1673283600000
114.9197,114.03,114.9197,114.01,13271,1673287200000
114.1,113.615,114.25,113.615,10543,1673290800000
113.67,113.28,113.935,113.28,43571,1673294400000
113.86,113.35,114.34,112.96,18798,1673362800000
113.31,113.35,113.42,113.155,5992,1673366400000
113.11,113.46,113.515,113.11,8917,1673370000000
113.46,113.5,113.68,113.16,24594,1673373600000
113.545,113.31,113.71,113.31,27943,1673377200000
113.28,113.5,113.51,113.17,37202,1673380800000
114.09,113.7,114.11,113.7,18790,1673449200000
113.84,113.59,113.88,113.525,5047,1673452800000
113.76,113.79,113.79,113.57,3226,1673456400000
113.84,113.53,113.88,113.52,10311,1673460000000
113.6,113.73,113.86,113.52,9681,1673463600000
113.805,113.46,113.88,113.45,47374,1673467200000
113.205,113.3,113.6,112.99,28736,1673535600000
113.07,113.11,113.3,112.905,28196,1673539200000
113.06,113.36,113.48,113.06,12065,1673542800000
113.27,113.465,113.53,112.91,15769,1673546400000
113.465,113.3,113.51,113.2,11671,1673550000000
113.41,113.44,113.62,113.05,32539,1673553600000
113.71,113.57,113.93,113.48,12891,1673622000000
113.48,113.78,113.82,113.4198,6743,1673625600000
113.7,114,114.035,113.7,5383,1673629200000
114.06,114.16,114.31,113.86,6838,1673632800000
114.2,113.84,114.2,113.5677,28514,1673636400000
113.8668,113.97,114.01,113.63,75518,1673640000000
114.09,113.695,114.53,113.56,16783,1673967600000
113.69,113.04,113.69,112.83,18748,1673971200000
113.15,113.56,113.56,113.135,14090,1673974800000
113.51,113.4,113.605,113.2719,9007,1673978400000
113.44,113.79,113.79,113.17,19631,1673982000000
113.83,114.07,114.11,113.57,82976,1673985600000
114.17,113.91,114.6,113.91,7307,1674054000000
113.52,113.15,113.61,112.87,9576,1674057600000
113.22,112.8,113.24,112.7,2446,1674061200000
112.82,113.25,113.37,112.38,11389,1674064800000
113.22,112.69,113.22,112.69,4879,1674068400000
112.66,111.98,112.8,111.92,36011,1674072000000
111.415,111.97,111.97,111,19320,1674140400000
112.05,111.995,112.35,111.81,17437,1674144000000
112,111.675,112.09,111.675,5585,1674147600000
111.85,112.03,112.24,111.76,10722,1674151200000
111.96,112.1,112.21,111.73,12988,1674154800000
112.08,112.04,112.41,111.8546,62084,1674158400000
112.015,112.28,112.42,111.73,19638,1674226800000
112.29,112.03,112.38,112,13142,1674230400000
112.125,111.87,112.21,111.87,8032,1674234000000
111.92,112.385,112.385,111.72,14380,1674237600000
112.26,112.72,112.72,112.19,16679,1674241200000
112.8,113.28,113.29,112.64,66267,1674244800000
112.99,113.28,113.6976,112.85,18092,1674486000000
113.285,113.365,113.73,113.21,17142,1674489600000
113.31,113.27,113.31,112.94,11602,1674493200000
113.295,113.2,113.41,113.17,13965,1674496800000
113.15,112.64,113.15,112.46,12895,1674500400000
112.74,113.38,113.38,112.71,53203,1674504000000
112.2,112.88,112.88,111.76,9386,1674572400000
112.98,112.7966,113.08,112.7966,16514,1674576000000
112.79,112.88,113.005,112.67,8645,1674579600000
112.92,113.04,113.11,112.85,10183,1674583200000
113.05,113.02,113.11,112.92,21443,1674586800000
113.06,112.84,113.145,112.77,62356,1674590400000
111.34,110.82,111.78,110.488,14568,1674658800000
110.83,111.16,111.16,110.68,7719,1674662400000
111.47,111.64,111.7,111.22,13063,1674666000000
111.64,111.685,111.835,111.52,21388,1674669600000
111.665,112.13,112.51,111.665,10127,1674673200000
112.135,112.13,112.36,111.98,63023,1674676800000
112.26,111.91,112.68,111.91,7741,1674745200000
112,112.09,112.19,111.82,8613,1674748800000
112.135,112.165,112.33,112.05,8440,1674752400000
112.22,112.43,112.505,112.105,7656,1674756000000
112.39,112.5,112.51,111.96,18682,1674759600000
112.43,112.78,112.89,112.27,59083,1674763200000
112.715,112.09,112.78,112.09,20330,1674831600000
111.95,112.265,112.33,111.855,15523,1674835200000
112.25,112.42,112.51,112.1,28316,1674838800000
112.36,112.23,112.4,112.14,24228,1674842400000
112.245,112.675,112.685,112.23,15975,1674846000000
112.73,112.74,112.94,112.56,62689,1674849600000
112.635,113,113.19,112.555,13566,1675090800000
112.93,112.62,112.93,112.46,9544,1675094400000
112.6905,112.59,112.72,112.44,14923,1675098000000
112.43,112.52,112.68,112.42,10259,1675101600000
112.5,112.86,112.88,112.49,25807,1675105200000
112.82,113.28,113.329,112.71,58864,1675108800000
113.87,114.09,114.2,113.42,8971,1675177200000
114.2,114.015,114.2,113.565,11250,1675180800000
114.03,114.38,114.51,113.98,10419,1675184400000
114.41,114.57,114.57,114.26,9955,1675188000000
114.43,115.015,115.19,114.43,18855,1675191600000
114.91,115.72,116.32,114.855,180188,1675195200000
115.38,115.23,115.605,114.49,19750,1675263600000
115.355,115.38,115.69,115.33,8336,1675267200000
115.48,115.47,115.61,115.26,8587,1675270800000
115.54,116.08,116.16,115.54,11617,1675274400000
116.03,116.72,116.96,115.64,24712,1675278000000
116.85,117.12,118.0599,116.83,68122,1675281600000
117.07,117.135,117.45,116.78,13732,1675350000000
117.06,116.99,117.11,116.7,15754,1675353600000
116.94,117.89,117.96,116.93,15864,1675357200000
117.85,118.16,118.23,117.65,13644,1675360800000
118.34,117.34,118.34,117.26,14618,1675364400000
117.28,117.36,117.51,116.99,129765,1675368000000
115.76,115.55,116,115.441,28227,1675436400000
115.66,115.45,116.04,115.41,37403,1675440000000
115.47,115.65,115.84,115.47,22445,1675443600000
115.58,115.51,115.91,115.42,22184,1675447200000
115.55,115.44,115.75,115.38,27789,1675450800000
115.39,115.48,115.76,115.2125,90298,1675454400000
114.68,114.945,115.08,114.24,17604,1675695600000
114.925,114,114.93,113.89,17364,1675699200000
114.01,114.015,114.03,113.69,9660,1675702800000
114.015,113.92,114.035,113.67,16435,1675706400000
113.97,113.7,114.16,113.66,16583,1675710000000
113.66,113.44,113.875,113.44,61953,1675713600000
111.88,111.405,111.88,111.31,14320,1675782000000
111.46,111.3045,111.91,111.21,16968,1675785600000
111.22,112.14,112.18,111.22,16866,1675789200000
112.16,110.99,112.24,110.7101,19447,1675792800000
110.98,112.27,112.37,110.98,16303,1675796400000
112.31,112.22,112.469,111.83,53549,1675800000000
111.83,111.47,111.87,111.47,9214,1675868400000
111.53,111.36,111.79,111.14,8968,1675872000000
111.36,111.875,111.94,111.235,10606,1675875600000
111.985,111.78,112.16,111.7727,9788,1675879200000
111.81,111.31,111.81,110.9427,12648,1675882800000
111.23,110.56,111.23,110.55,47568,1675886400000
110.755,111.32,111.56,110.64,5931,1675954800000
111.22,110.62,111.33,110.62,9969,1675958400000
110.895,110.33,110.895,110.05,11305,1675962000000
110.395,110.29,110.395,110.055,11690,1675965600000
110.24,109.88,110.255,109.75,38127,1675969200000
109.85,109.24,109.85,109.24,56437,1675972800000
108.32,108.345,109.015,108.15,17855,1676041200000
108.59,108.385,108.68,108.36,13508,1676044800000
108.285,108.45,108.45,108.105,15614,1676048400000
108.53,108.36,108.75,108.31,10745,1676052000000
108.265,108.52,108.6,108.22,13688,1676055600000
108.55,109.22,109.22,108.275,76743,1676059200000
109.37,110.14,110.2274,109.37,26247,1676300400000
110.09,110.39,110.54,110.01,12280,1676304000000
110.445,110.3,110.46,110.26,9558,1676307600000
110.3,110.1,110.3,109.99,11039,1676311200000
110.15,109.71,110.15,109.71,18506,1676314800000
109.73,109.78,110.04,109.53,56908,1676318400000
110.23,110.26,111.2,110.23,9286,1676386800000
110.34,110.15,110.48,109.89,7505,1676390400000
110.16,110.235,110.3,110.11,4664,1676394000000
110.22,110.3,110.71,110.22,5902,1676397600000
110.33,110.51,110.635,110.27,7459,1676401200000
110.525,109.78,110.525,109.74,42816,1676404800000
108.99,109.165,109.25,108.62,7658,1676473200000
109.1,109.7,109.96,109.1,13619,1676476800000
109.76,109.74,109.82,109.45,17767,1676480400000
109.81,110.28,110.28,109.78,7483,1676484000000
110.288,109.8375,110.288,109.8375,18817,1676487600000
109.835,110.39,110.4,109.82,46885,1676491200000
108.9,109.96,110.12,108.9,35283,1676559600000
110.02,110.25,110.55,110.02,33323,1676563200000
110.24,110.59,110.71,110.24,22403,1676566800000
110.62,110.82,110.82,110.34,31511,1676570400000
110.82,111.27,111.53,110.82,59575,1676574000000
111.26,110.74,111.425,110.46,120412,1676577600000
118.93,117.36,121.28,116.91,78108,1676646000000
117.595,116.01,117.61,115.47,62845,1676649600000
116.065,115.78,117.07,115.75,68445,1676653200000
115.68,116.06,116.5767,115.54,32992,1676656800000
116.15,116.4,116.795,116.14,48850,1676660400000
116.47,116.74,117.19,116.41,159497,1676664000000
113.44,114.52,114.59,113.11,63354,1676991600000
114.6,114.852,115.28,114.59,46932,1676995200000
115,115.01,115.08,114.58,29324,1676998800000
114.94,114.97,115.01,114.71,29864,1677002400000
114.98,115.38,115.38,114.85,42571,1677006000000
115.455,115.07,115.475,114.89,125739,1677009600000
115.79,115.14,115.8,114.45,33860,1677078000000
115.06,115.11,115.13,114.4901,13860,1677081600000
115.19,115.27,115.695,115.18,21128,1677085200000
115.1421,115.44,115.64,115.135,22972,1677088800000
115.4,114.76,115.56,114.76,28110,1677092400000
114.76,114.72,115.08,114.59,59509,1677096000000
115.12,114.29,115.555,114.14,15902,1677164400000
114.31,113.08,114.32,113.08,11984,1677168000000
113.08,113.68,113.85,113.08,13380,1677171600000
113.73,113.875,113.9199,113.555,13021,1677175200000
113.83,114.39,114.54,113.83,18107,1677178800000
114.4,114.57,114.73,114.32,77117,1677182400000
113.97,113.8,114.8,113.69,16985,1677250800000
113.96,114.13,114.46,113.86,25486,1677254400000
114.07,113.97,114.19,113.87,14336,1677258000000
114.06,114.2,114.43,114,22511,1677261600000
114.22,114.91,114.91,114.1,23465,1677265200000
114.9196,114.78,115.04,114.17,62497,1677268800000
116.865,116.43,117.25,116.39,24383,1677510000000
116.54,116.34,116.7,116.215,19032,1677513600000
116.18,116.18,116.34,116,16248,1677517200000
116.24,116.44,116.44,116.21,14411,1677520800000
116.55,116.495,116.68,116.33,19789,1677524400000
116.5,116.75,116.8,116.24,70916,1677528000000
117.295,116.77,117.59,116.59,21872,1677596400000
116.86,117.38,117.46,116.76,15921,1677600000000
117.43,117.84,117.95,117.43,11694,1677603600000
117.84,117.84,118.11,117.78,12792,1677607200000
117.925,117.4,118.02,117.36,14092,1677610800000
117.375,116.72,117.53,116.71,71913,1677614400000
117.34,117.24,117.34,116.39,11416,1677682800000
117.18,116.975,117.18,116.37,14493,1677686400000
116.96,116.77,117.35,116.77,13968,1677690000000
116.76,116.57,116.88,116.56,14728,1677693600000
116.53,116.795,116.87,116.53,24871,1677697200000
116.795,117.51,117.61,116.795,62663,1677700800000
117.46,117.65,117.86,117.31,24265,1677769200000
117.64,118.585,118.62,117.58,25834,1677772800000
118.53,118.39,118.7,118.36,10690,1677776400000
118.44,118.45,118.54,118.21,15615,1677780000000
118.52,118.63,118.98,118.4,25915,1677783600000
118.59,118.59,119,118.36,53088,1677787200000
118.345,118.095,118.42,117.85,19981,1677855600000
118.22,119.19,119.19,118.19,12944,1677859200000
119.17,119.45,119.48,119.17,8376,1677862800000
119.45,119.46,119.56,119.37,8182,1677866400000
119.435,119.62,119.64,119.33,14321,1677870000000
119.66,120.25,120.25,119.51,104180,1677873600000
119.4019,118.67,119.895,118.44,15858,1678114800000
118.77,118.18,118.825,118.18,11132,1678118400000
118.21,117.52,118.34,117.36,26378,1678122000000
117.48,117.08,117.48,116.97,11280,1678125600000
117.1406,116.9,117.19,116.82,10858,1678129200000
116.81,116.8,117.1964,116.58,91972,1678132800000
116.89,116.405,116.91,116.2178,17113,1678201200000
116.47,116.61,116.99,116.44,24705,1678204800000
116.64,116.84,117.075,116.63,11804,1678208400000
116.77,116.87,117.18,116.73,22790,1678212000000
116.94,117.06,117.25,116.94,23904,1678215600000
117.035,116.7,117.34,116.66,106454,1678219200000
116.5,115.78,116.7,115.78,12959,1678287600000
115.955,116.34,116.5325,115.795,18542,1678291200000
116.38,115.66,116.415,115.55,23520,1678294800000
115.65,115.595,115.725,115.34,24660,1678298400000
115.7248,115.435,115.7248,115.38,25160,1678302000000
115.47,115.31,115.62,115.1714,128119,1678305600000
116.165,116,116.41,115.94,16909,1678374000000
115.85,115.84,116.04,115.7475,9776,1678377600000
115.78,115.89,116.1,115.47,20099,1678381200000
115.83,115.52,116.0818,115.25,20156,1678384800000
115.65,115.26,115.65,115.2,17869,1678388400000
115.36,114.57,115.36,114.531,60108,1678392000000
113.855,113.57,113.86,112.885,17464,1678460400000
113.605,113.68,114.29,113.435,8207,1678464000000
113.675,113.205,113.75,113.205,11421,1678467600000
113.305,112.345,113.34,112.275,8673,1678471200000
112.49,113.7,113.75,112.44,26024,1678474800000
113.57,112.56,113.63,112.29,71997,1678478400000
112.33,112.755,112.755,111.8,23507,1678716000000
112.775,112.59,113.11,112.315,23732,1678719600000
112.89,111.91,112.89,111.71,16990,1678723200000
111.93,112.41,112.5,111.66,15299,1678726800000
112.51,112.6,112.72,112.29,18557,1678730400000
112.63,111.97,112.8,111.65,88046,1678734000000
113.7,114.45,114.81,113.7,16366,1678802400000
114.35,114.765,115.16,114.35,12058,1678806000000
114.82,114.015,114.85,113.93,11068,1678809600000
114.09,113.88,114.165,113.495,31806,1678813200000
113.88,113.95,114.23,113.49,24900,1678816800000
113.87,115.14,115.26,113.55,90856,1678820400000
112.47,111.72,112.7659,111.06,34756,1678888800000
111.685,110.785,112.1,110.6,16890,1678892400000
110.77,110.32,110.77,110.17,26682,1678896000000
110.46,110.85,111.03,110.28,17255,1678899600000
110.74,111.44,111.64,110.61,24211,1678903200000
111.47,111.42,111.56,110.8,70417,1678906800000
111.56,111.91,112.08,110.61,17287,1678975200000
111.99,112.23,112.26,111.82,11319,1678978800000
112.11,112.63,112.63,111.86,11491,1678982400000
112.71,113.16,113.28,112.695,30724,1678986000000
113.115,113.09,113.115,112.6,19667,1678989600000
113.11,112.68,113.185,112.26,51503,1678993200000
111.72,110.44,111.72,110.41,15257,1679061600000
110.39,110.295,110.83,110.295,9673,1679065200000
110.41,110.73,110.905,110.41,10047,1679068800000
110.53,110.17,110.84,110.16,15894,1679072400000
110.34,110.12,110.38,109.99,18226,1679076000000
110.06,110.76,110.76,109.95,66263,1679079600000
112.76,113.4,113.4,112.75,16483,1679320800000
113.35,112.9435,113.47,112.9435,9040,1679324400000
112.82,112.945,113.05,112.36,7264,1679328000000
112.94,112.81,113.38,112.81,6897,1679331600000
112.725,112.515,112.7833,112.41,13185,1679335200000
112.495,112.82,113.06,112.495,35793,1679338800000
113.95,113.86,114.22,113.7,12924,1679407200000
113.65,113.12,113.83,113.03,9611,1679410800000
113.11,113.05,113.22,112.855,8168,1679414400000
112.95,112.535,113.1,112.535,6550,1679418000000
112.6,112.59,112.77,112.465,10621,1679421600000
112.65,113.06,113.14,112.61,31715,1679425200000
113.27,113.76,113.87,113.27,13014,1679493600000
113.76,113.42,113.76,113.07,8706,1679497200000
113.4,113.17,113.42,112.97,14102,1679500800000
113.13,113.29,113.375,113.04,8074,1679504400000
113.21,113.3548,114.215,113.02,29936,1679508000000
113.26,112.15,113.695,112.14,55811,1679511600000
112.64,113.06,113.08,112.4,11888,1679580000000
113.15,113.08,113.445,113.025,7398,1679583600000
112.915,112.3,112.915,112.3,4813,1679587200000
112.275,111.99,112.29,111.93,5867,1679590800000
111.85,111.01,111.96,110.81,12585,1679594400000
111.36,111.62,112.07,110.87,48808,1679598000000
110.805,111.6,111.83,110.79,17559,1679666400000
111.78,112.4,112.68,111.67,14685,1679670000000
112.5825,112.42,112.5825,112.17,5931,1679673600000
112.485,112.24,112.485,112.1401,6406,1679677200000
112.26,112.11,112.28,112.05,8552,1679680800000
112,112.99,112.99,112,38297,1679684400000
113.86,114.15,114.519,113.81,17815,1679925600000
114.18,114.559,114.559,114.1,7960,1679929200000
114.53,114.8,114.825,114.26,9193,1679932800000
114.809,114.4,114.84,114.33,10627,1679936400000
114.4,114.65,114.71,114.355,13529,1679940000000
114.66,114.05,114.7623,113.83,49228,1679943600000
114.29,114.445,114.87,114.1,9620,1680012000000
114.34,114.82,114.82,114.34,5357,1680015600000
114.82,114.89,114.89,114.73,6452,1680019200000
114.88,114.85,115.02,114.7,16265,1680022800000
114.96,114.975,115.03,114.84,14624,1680026400000
115,115.09,115.12,114.56,80661,1680030000000
115.63,115.75,115.94,115.59,6175,1680098400000
115.595,115.3043,115.8,115.16,8304,1680102000000
115.42,115.3,115.42,115.172,4354,1680105600000
115.37,115.56,115.58,115.37,5750,1680109200000
115.56,115.89,115.9,115.455,13542,1680112800000
115.835,115.92,115.93,115.435,39793,1680116400000
116.32,116.38,116.55,116.11,12667,1680184800000
116.51,115.66,116.51,115.66,11891,1680188400000
115.57,115.05,115.57,115.05,29313,1680192000000
115.11,115.58,115.62,115.05,11757,1680195600000
115.56,115.79,115.82,115.44,9657,1680199200000
115.66,115.95,115.98,115.4,26833,1680202800000
117.07,117.25,117.37,116.74,18369,1680271200000
117.28,117.63,117.755,117.28,9614,1680274800000
117.67,117.56,117.775,117.42,6880,1680278400000
117.53,117.426,117.61,117.426,4437,1680282000000
117.51,117.455,117.65,117.265,13981,1680285600000
117.54,118.19,118.27,117.38,58826,1680289200000
118.02,117.745,118.58,117.745,14670,1680530400000
117.77,118.01,118.11,117.645,6587,1680534000000
118.11,118.08,118.3,118.04,13474,1680537600000
118.11,118.01,118.17,117.83,7655,1680541200000
117.995,118.07,118.14,117.92,11472,1680544800000
118.1,118.65,118.81,118.1,42469,1680548400000
117.69,117.25,117.96,117.12,5401,1680616800000
117.26,117.06,117.51,116.99,14842,1680620400000
116.915,117,117.375,116.915,11396,1680624000000
117.125,117.145,117.45,117.09,13042,1680627600000
116.88,116.85,116.99,116.78,6591,1680631200000
116.88,117.68,117.68,116.79,59619,1680634800000
118.52,118.27,118.745,118.17,34849,1680703200000
118.26,118.11,118.53,117.9874,19678,1680706800000
118.1,117.975,118.19,117.77,12390,1680710400000
117.94,118.275,118.29,117.82,25459,1680714000000
118.285,118.46,118.68,118.22,34275,1680717600000
118.5,119.1,119.2,118.21,74045,1680721200000
118.56,118.31,118.57,118.27,9455,1680789600000
118.25,118.36,118.4,117.93,6995,1680793200000
118.48,118.655,118.71,118.38,8264,1680796800000
118.675,118.56,118.88,118.44,7253,1680800400000
118.48,118.9,119,118.44,13007,1680804000000
118.93,119.09,119.09,118.55,58205,1680807600000
118.87,118.82,119.215,118.715,18216,1681135200000
118.6,118.01,118.61,118.01,6733,1681138800000
118.03,118.34,118.34,118,4154,1681142400000
118.37,118.46,118.52,118.34,4393,1681146000000
118.45,118.84,119.14,118.45,23620,1681149600000
118.78,119.1,119.21,118.78,63493,1681153200000
119.68,119.77,119.99,119.58,5839,1681221600000
119.795,119.73,119.9,119.62,5151,1681225200000
119.67,119.86,119.96,119.57,10618,1681228800000
119.76,119.77,119.89,119.64,10168,1681232400000
119.755,119.48,119.755,119.48,9317,1681236000000
119.46,119.05,119.695,118.83,36783,1681239600000
119.44,118.94,119.67,118.69,14767,1681308000000
118.95,118.61,119.11,118.47,10368,1681311600000
118.71,118.605,118.71,118.33,15754,1681315200000
118.56,119.14,119.2275,118.56,10710,1681318800000
119.275,118.55,119.32,118.45,13214,1681322400000
118.7,118.33,118.73,118.19,36621,1681326000000
118.395,118.8,119.22,118.395,6898,1681394400000
118.775,118.98,119,118.775,4317,1681398000000
119.11,119.25,119.25,119.03,2503,1681401600000
119.18,119.63,119.64,119.17,5555,1681405200000
119.61,119.92,119.96,119.56,9794,1681408800000
119.99,119.78,120,119.67,37926,1681412400000
119.8,119.4,119.8,119.09,11337,1681480800000
119.23,118.92,119.33,118.7,10826,1681484400000
118.91,118.54,119.06,118.54,7984,1681488000000
118.62,119.07,119.07,118.31,12913,1681491600000
119.0623,119.375,119.745,119.05,44845,1681495200000
119.28,119.2,119.28,118.63,89895,1681498800000
119.16,118.8,119.605,118.74,15484,1681740000000
118.98,118.83,118.99,118.53,8188,1681743600000
118.8,118.82,118.875,118.67,8075,1681747200000
118.79,119.07,119.07,118.66,8924,1681750800000
119.015,119.575,119.575,118.9,9284,1681754400000
119.63,119.81,119.81,119.37,32931,1681758000000
118.6337,119.165,119.44,118.6337,7369,1681826400000
119.22,118.93,119.265,118.755,16636,1681830000000
118.92,118.76,119.065,118.53,11987,1681833600000
118.71,118.43,118.7746,118.26,49982,1681837200000
118.505,118.41,118.61,118.29,22674,1681840800000
118.44,118.59,118.81,118.32,78604,1681844400000
118.49,118.535,118.615,118.08,28812,1681912800000
118.51,118.36,118.635,118.175,44469,1681916400000
118.3,118.33,118.495,118.26,12835,1681920000000
118.38,118.87,118.875,118.245,38660,1681923600000
118.86,118.705,118.97,118.51,19240,1681927200000
118.7,118.72,118.77,118.295,69076,1681930800000
118.8,119.61,119.61,118.73,32409,1681999200000
119.75,119.43,119.75,119.14,16489,1682002800000
119.37,119.02,119.41,118.95,20141,1682006400000
119.07,119.45,119.71,119.07,18890,1682010000000
119.285,119.58,119.8,119.285,36204,1682013600000
119.595,119.03,119.65,118.865,94805,1682017200000
118.84,119.125,119.85,118.84,53612,1682085600000
119.3,119.69,119.78,119.3,20016,1682089200000
119.69,119.995,120,119.5,22669,1682092800000
120,119.94,120.12,119.89,34466,1682096400000
120.035,120.46,120.48,119.915,40028,1682100000000
120.54,120.55,121.07,120.42,112823,1682103600000
120.76,120.35,121.23,120.35,24244,1682344800000
120.41,120.395,120.63,120.25,11624,1682348400000
120.355,120.5,120.55,120.26,7283,1682352000000
120.38,120.13,120.38,120.06,12856,1682355600000
120.04,119.84,120.07,119.74,14112,1682359200000
119.865,120.41,120.44,119.78,75402,1682362800000
119.825,118.96,119.825,118.74,24355,1682431200000
118.96,118.7,119.095,118.68,11124,1682434800000
118.73,118.58,118.9,118.515,13064,1682438400000
118.57,118.145,118.58,118.06,16331,1682442000000
118.09,117.8834,118.28,117.8834,18092,1682445600000
118.18,118.09,118.765,118.015,48520,1682449200000
117.035,117.3374,117.3374,116.8,8119,1682517600000
117.32,117.215,117.42,117.11,10543,1682521200000
117.27,116.18,117.28,116.02,20053,1682524800000
116.3,116.47,116.86,116.3,25272,1682528400000
116.49,115.87,116.56,115.7,18566,1682532000000
115.825,115.75,116.07,115.61,88460,1682535600000
115.72,115.415,115.82,115.15,26985,1682604000000
115.39,115,115.4,114.63,28654,1682607600000
115,115.36,115.5,114.97,41861,1682611200000
115.455,115.46,115.61,115.215,27963,1682614800000
115.51,116,116.1,115.27,46587,1682618400000
116,116.58,116.58,115.95,118904,1682622000000
118.225,118.67,119.47,118.175,41331,1682690400000
118.5,119.2,119.565,118.39,20060,1682694000000
119.37,118.96,119.42,118.93,17300,1682697600000
118.96,118.77,118.965,118.58,22761,1682701200000
118.77,119.07,119.07,118.4,39453,1682704800000
119.06,118.46,119.53,118.04,129045,1682708400000
120.88,122.43,122.5,120.65,28583,1682949600000
122.3,122.225,122.39,121.85,26974,1682953200000
122.25,122,122.33,121.945,17212,1682956800000
121.94,121.58,121.97,121.36,26344,1682960400000
121.57,121.05,121.6,120.99,33456,1682964000000
121.11,121.63,121.995,121.095,66111,1682967600000
119.015,119.03,120.075,118.55,34539,1683036000000
118.79,118.5,118.795,118.01,19418,1683039600000
118.5,119.12,119.12,118.22,17130,1683043200000
119.145,119.45,119.48,118.81,15433,1683046800000
119.23,119.62,119.69,119.04,22983,1683050400000
119.87,120.48,120.5,119.595,96386,1683054000000
120.56,120.265,120.985,119.97,19992,1683122400000
120.19,120.46,120.89,120.16,20657,1683126000000
120.485,120.5,120.56,120.225,21467,1683129600000
120.5,120.47,120.63,120.31,27222,1683133200000
120.3,121,121,119.74,32827,1683136800000
120.98,119.88,121.01,119.8,84635,1683140400000
119.13,119.19,119.84,119.13,28766,1683208800000
119.1,118.5,119.39,118.5,11221,1683212400000
118.451,118.98,119.05,118.39,8831,1683216000000
118.97,118.88,119.3658,118.77,14415,1683219600000
118.855,118.7525,119.01,118.5228,15456,1683223200000
118.799,118.87,118.9,118.4,60475,1683226800000
120.57,120.44,121.16,120.39,18885,1683295200000
120.35,120.52,120.85,120.29,14627,1683298800000
120.525,120.92,120.9625,120.36,10324,1683302400000
120.97,121.16,121.28,120.97,12984,1683306000000
121.14,121.68,121.82,121.06,12706,1683309600000
121.69,121.74,121.88,121.54,42754,1683313200000
122.155,121.715,122.26,121.55,14623,1683554400000
121.74,121.82,121.83,121.34,14391,1683558000000
121.835,121.22,121.835,121.04,14755,1683561600000
121.29,121.15,121.34,120.97,19123,1683565200000
121.185,120.99,121.185,120.66,26058,1683568800000
121.01,121.49,121.71,120.8,64826,1683572400000
120.57,120.12,120.57,119.69,15873,1683640800000
120.25,120.27,120.64,120.13,14827,1683644400000
120.2067,120.12,120.39,119.98,14410,1683648000000
120.2,120.255,120.47,120.19,17576,1683651600000
120.3,120.49,120.72,120.1,15149,1683655200000
120.48,120.52,121.03,120.48,56233,1683658800000
120.37,119.125,120.395,118.91,14317,1683727200000
119.13,119.24,119.77,118.975,14341,1683730800000
119.16,118.705,119.29,118.705,18896,1683734400000
118.74,118.68,118.85,118.495,8573,1683738000000
118.86,119.335,119.42,118.81,20448,1683741600000
119.27,119.59,120.05,119.27,60586,1683745200000
119.145,119.355,119.51,118.96,14608,1683813600000
119.39,119.31,119.421,119.14,5435,1683817200000
119.32,119.68,119.68,119.25,5435,1683820800000
119.63,119.42,119.63,119.1969,7666,1683824400000
119.445,119.51,119.59,119.2517,7639,1683828000000
119.535,119.28,119.69,119.2,70353,1683831600000
120.31,119.895,120.36,119.63,15820,1683900000000
119.89,119.57,119.98,119.54,7897,1683903600000
119.64,119.41,119.69,119.37,9179,1683907200000
119.345,119.55,119.72,119.345,9736,1683910800000
119.57,119.89,119.97,119.57,10828,1683914400000
119.98,120.82,120.87,119.97,54489,1683918000000
120.195,120.43,120.72,120.075,6257,1684159200000
120.43,120.21,120.485,120.21,6665,1684162800000
120.15,120.87,120.87,120.035,4319,1684166400000
120.91,120.72,121.0728,120.7,8317,1684170000000
120.76,120.43,120.88,120.43,21082,1684173600000
120.44,120.61,120.62,120.15,56225,1684177200000
119.605,118.515,119.605,118.515,16856,1684245600000
118.62,118.51,118.83,118.42,17123,1684249200000
118.5214,118.96,119.045,118.43,21315,1684252800000
118.88,118.66,118.92,118.55,7621,1684256400000
118.66,118.44,118.66,118.205,21056,1684260000000
118.52,118.39,118.71,118.27,48424,1684263600000
117.925,117.8502,118.45,117.46,26692,1684332000000
117.955,118.08,118.37,117.955,8453,1684335600000
118.12,118.85,119.035,117.94,12837,1684339200000
118.88,118.81,119.03,118.7,7736,1684342800000
118.88,118.51,118.88,118.415,14712,1684346400000
118.56,118.98,119.04,118.51,40344,1684350000000
117.831,118.92,118.97,117.831,4598,1684418400000
118.975,118.5576,119.03,118.445,9119,1684422000000
118.38,117.98,118.38,117.78,5027,1684425600000
118.34,117.99,118.355,117.86,5237,1684429200000
117.94,118.57,118.59,117.94,8139,1684432800000
118.65,119.04,119.05,118.4,25410,1684436400000
119.89,119.83,119.89,119.41,4965,1684504800000
119.737,118.95,119.89,118.71,10370,1684508400000
118.805,118.825,119.005,118.6,10423,1684512000000
118.765,118.84,118.98,118.69,7531,1684515600000
118.76,118.91,118.93,118.75,7605,1684519200000
118.915,119.09,119.11,118.72,51737,1684522800000
118.22,117.94,118.54,117.885,17763,1684764000000
118.02,118.89,119.06,117.92,21632,1684767600000
119.01,118.785,119.01,118.62,9891,1684771200000
118.98,119.265,119.34,118.705,13574,1684774800000
119.32,119,119.52,118.95,37105,1684778400000
119,118.18,119,118,77030,1684782000000
117.84,118.04,118.35,117.57,10741,1684850400000
118.145,117.98,118.45,117.9582,15075,1684854000000
118,117.54,118.09,117.435,10290,1684857600000
117.65,117.6,117.81,117.34,10315,1684861200000
117.58,117.41,117.83,117.17,17389,1684864800000
117.44,117.19,117.7285,116.91,48124,1684868400000
115.81,116.11,116.42,115.71,28467,1684936800000
116,115.795,116.17,115.64,18686,1684940400000
115.8126,116.22,116.33,115.8126,3853,1684944000000
116.18,115.95,116.18,115.94,8959,1684947600000
116,115.67,116.03,115.64,14312,1684951200000
115.64,115.11,115.91,115.03,124150,1684954800000
115.075,114.02,115.28,113.91,21582,1685023200000
114.125,113.73,114.29,113.44,15968,1685026800000
113.85,113.96,114.24,113.83,9999,1685030400000
113.9,114.32,114.645,113.875,10820,1685034000000
114.325,113.66,114.555,113.64,17863,1685037600000
113.73,113.55,113.99,113.48,62146,1685041200000
113.01,113.43,113.85,113.01,39860,1685109600000
113.58,113.78,114.07,113.53,16117,1685113200000
113.8,114.355,114.49,113.79,13195,1685116800000
114.34,114.13,114.38,114,14558,1685120400000
114.22,114.12,114.44,114.09,15239,1685124000000
114.18,114.16,114.28,113.96,48469,1685127600000
114.1575,113.55,114.225,113.55,13101,1685455200000
113.7,113.4,113.79,113.23,10411,1685458800000
113.445,113.56,113.58,113.24,7742,1685462400000
113.47,113.2,113.47,113.02,6925,1685466000000
113.2,113.31,113.525,113.01,18150,1685469600000
113.26,113.39,113.69,113.155,35761,1685473200000
112.53,112.32,112.53,111.69,29082,1685541600000
112.4,112.06,112.47,112.06,13809,1685545200000
112.0875,111.94,112.09,111.79,25886,1685548800000
111.96,112.285,112.46,111.96,17448,1685552400000
112.305,112.06,112.59,112,31473,1685556000000
112.14,112.39,113.08,112.07,111192,1685559600000
112.4225,112.995,113.33,112.31,16775,1685628000000
113.04,113.385,113.43,112.925,9431,1685631600000
113.3175,113,113.3175,113,9250,1685635200000
113.03,113.22,113.28,112.98,10914,1685638800000
113.31,113.24,113.52,113.24,12553,1685642400000
113.26,113,113.36,112.71,46613,1685646000000
114.06,114.06,114.24,113.66,52694,1685714400000
114.1,114.39,114.745,114.1,17893,1685718000000
114.415,114.49,114.69,114.4,18045,1685721600000
114.48,114.49,114.56,114.31,34071,1685725200000
114.525,114.39,114.67,114.385,70772,1685728800000
114.4,114.16,114.51,113.98,98074,1685732400000
114,113.51,114.11,112.8765,21892,1685973600000
113.7,113.46,113.79,113.46,14156,1685977200000
113.43,113.51,113.61,113.42,20106,1685980800000
113.525,113.645,113.645,113.285,14676,1685984400000
113.635,113.37,113.74,113.285,37457,1685988000000
113.3,113.06,113.54,113.01,89078,1685991600000
113.62,114.62,114.66,113.5,26792,1686060000000
114.5,113.905,114.6,113.88,23681,1686063600000
113.78,113.77,113.94,113.625,16925,1686067200000
113.72,113.585,113.87,113.38,24299,1686070800000
113.585,114.275,114.34,113.585,28145,1686074400000
114.275,114.33,114.56,114.035,95265,1686078000000
115.35,115,115.35,114.76,27770,1686146400000
115.045,114.75,115.205,114.73,19248,1686150000000
114.8,115.205,115.53,114.77,20000,1686153600000
115.15,115.325,115.33,114.995,18988,1686157200000
115.32,115.26,115.42,115.19,21647,1686160800000
115.245,115.41,115.7,115.245,77525,1686164400000
115.43,114.94,115.99,114.94,32936,1686232800000
115.17,115.19,115.31,114.79,10596,1686236400000
115.16,115.545,115.5765,115.09,20486,1686240000000
115.54,115.615,115.88,115.29,34160,1686243600000
115.535,115.26,115.8,115.26,29882,1686247200000
115.34,115.2,115.57,115.18,63091,1686250800000
114.93,115.35,115.57,114.93,34061,1686319200000
115.36,114.82,115.37,114.66,28851,1686322800000
114.82,115.005,115.11,114.58,27145,1686326400000
115,115.22,115.254,114.96,21752,1686330000000
115.24,114.73,115.35,114.73,24974,1686333600000
114.8,114.8,114.95,114.39,84972,1686337200000
115.44,115.2,115.4525,115.06,24987,1686578400000
115.18,114.94,115.22,114.9,10390,1686582000000
115.06,115.31,115.31,114.84,43785,1686585600000
115.35,115.365,115.43,114.99,32223,1686589200000
115.355,115.39,115.51,115.07,26671,1686592800000
115.42,115.39,115.59,115.18,145622,1686596400000
116.08,115.87,116.39,115.74,29710,1686664800000
115.77,115.275,115.77,115.24,24510,1686668400000
115.19,115.1599,115.28,114.91,27439,1686672000000
114.955,115.3,115.3,114.76,23525,1686675600000
115.285,115.05,115.33,114.86,38132,1686679200000
115.04,115.17,115.57,115.04,130226,1686682800000
115.47,115.405,115.75,115.39,22356,1686751200000
115.53,115.56,115.96,115.53,21833,1686754800000
115.62,115.2775,115.62,115.18,17571,1686758400000
115.265,115.13,115.295,115.12,11865,1686762000000
115.12,114.9,115.12,114.35,19647,1686765600000
115.0417,115.16,115.25,114.765,58605,1686769200000
115.49,115.04,115.65,114.945,21143,1686837600000
115.185,115.42,115.83,115.1,104655,1686841200000
115.3975,115.71,115.83,115.23,16611,1686844800000
115.66,115.575,115.6804,115.375,27763,1686848400000
115.6483,115.735,115.76,115.32,25364,1686852000000
115.78,116.05,116.4,115.69,92657,1686855600000
116.18,115.79,116.405,115.71,20524,1686924000000
115.7,115.7012,115.9,115.36,59024,1686927600000
115.73,116.62,116.635,115.73,25582,1686931200000
116.46,115.93,116.55,115.8,69095,1686934800000
115.89,116.22,116.22,115.88,17171,1686938400000
116.305,117.14,117.21,116.04,130842,1686942000000
116.26,116.18,116.555,116.03,27253,1687269600000
116.18,116.09,116.225,115.795,21386,1687273200000
116.06,116.04,116.21,115.93,21122,1687276800000
116.08,115.97,116.155,115.86,12459,1687280400000
115.9,115.95,116.07,115.835,27374,1687284000000
116.0094,115.71,116.24,115.71,98462,1687287600000
114.6,114.46,114.6,114.15,32556,1687356000000
114.59,114.13,114.6,114.09,20571,1687359600000
114.08,113.82,114.34,113.82,26216,1687363200000
113.78,114.06,114.12,113.53,17315,1687366800000
114.025,113.77,114.16,113.67,26106,1687370400000
113.74,113.61,113.89,113.42,95002,1687374000000
112.4826,112.765,112.9981,112.44,54972,1687442400000
112.79,112.56,113.04,112.41,30560,1687446000000
112.565,113.09,113.36,112.565,31400,1687449600000
113,113.51,113.54,112.995,12767,1687453200000
113.505,113.79,113.87,113.39,15564,1687456800000
113.79,114.05,114.06,113.5375,66806,1687460400000
113.355,113.185,113.425,113.03,14427,1687528800000
113.16,113.18,113.285,113,15191,1687532400000
113.2,112.9,113.38,112.85,24769,1687536000000
112.9,113.105,113.25,112.86,13055,1687539600000
113.08,113.04,113.08,112.65,27217,1687543200000
113.05,112.81,113.1,112.705,103453,1687546800000
113.22,113.62,113.965,113.2,21950,1687788000000
113.58,114.16,114.18,113.58,6318,1687791600000
114.24,114.29,114.37,114.02,14450,1687795200000
114.3,113.84,114.35,113.84,12490,1687798800000
113.83,113.79,113.92,113.55,14577,1687802400000
113.83,113.64,113.96,113.47,34227,1687806000000
113.68,114.29,114.29,113.6,19327,1687874400000
114.255,114.335,114.38,114.14,10531,1687878000000
114.3234,114.39,114.565,114.3,9345,1687881600000
114.41,114.405,114.6,114.185,13163,1687885200000
114.39,114.71,114.76,114.39,21206,1687888800000
114.79,114.71,114.82,114.57,70859,1687892400000
112.97,112.98,113.25,112.965,15391,1687960800000
112.88,112.96,113.22,112.88,9256,1687964400000
112.965,113.02,113.31,112.93,12975,1687968000000
112.995,113.22,113.2575,112.905,16153,1687971600000
113.24,113.315,113.5075,113.17,22143,1687975200000
113.34,113.53,113.54,113.285,68115,1687978800000
113.75,114.205,114.42,113.75,26166,1688047200000
114.31,114.88,114.89,114.17,20020,1688050800000
114.92,115.27,115.3574,114.87,11428,1688054400000
115.31,115.15,115.36,114.9022,18715,1688058000000
115.145,114.98,115.32,114.96,25106,1688061600000
115.01,114.8,115.325,114.71,82858,1688065200000
115.41,115.135,115.472,114.84,52376,1688133600000
115.1775,115.235,115.235,114.985,29477,1688137200000
115.23,115.67,115.825,115.23,7815,1688140800000
115.77,115.69,116.07,115.57,17092,1688144400000
115.79,116,116.21,115.79,18327,1688148000000
116.05,115.82,116.28,115.81,58458,1688151600000
116.35,116.56,117.02,116.23,25760,1688392800000
116.585,116.31,116.75,116.28,13887,1688396400000
116.4,116.47,116.6,116.32,20924,1688400000000
116.54,116.54,116.54,116.54,8565,1688403600000
116.54,116.54,116.54,116.54,0,1688410800000
115.34,114.28,115.34,114.23,19859,1688565600000
114.4,113.54,114.4,113.54,36147,1688569200000
113.67,113.16,113.67,112.76,57491,1688572800000
113.14,113.55,113.64,113.02,11972,1688576400000
113.63,113.52,113.63,113.19,16258,1688580000000
113.44,112.94,113.49,112.92,60323,1688583600000
112.81,111.85,112.98,111.625,23103,1688652000000
111.92,111.86,112.06,111.66,26021,1688655600000
111.87,111.94,112.06,111.69,19166,1688659200000
111.97,112.205,112.39,111.86,20344,1688662800000
112.205,112.34,112.37,112.1,24140,1688666400000
112.36,112.48,112.51,112.13,68183,1688670000000
113.88,114.4371,114.87,113.87,42236,1688738400000
114.445,114.44,114.735,114.36,20884,1688742000000
114.46,115.18,115.295,114.38,21263,1688745600000
115.325,114.575,115.33,114.51,15040,1688749200000
114.51,114.25,114.77,114.24,33118,1688752800000
114.25,113.79,114.26,113.42,119046,1688756400000
115.16,113.84,115.17,113.82,23270,1688997600000
113.77,113.92,113.94,113.39,34919,1689001200000
113.88,113.96,114.06,113.5,15120,1689004800000
114.02,114.32,114.32,113.965,11692,1689008400000
114.32,114.275,114.46,114.17,23002,1689012000000
114.22,114.48,114.48,113.97,71032,1689015600000
114.65,113.65,114.68,113.37,30417,1689084000000
113.78,114.25,114.25,113.74,26445,1689087600000
114.22,114.68,114.85,114.22,15107,1689091200000
114.77,114.815,114.87,114.46,15232,1689094800000
114.86,115.185,115.25,114.85,21890,1689098400000
115.19,115.53,115.56,115.11,62343,1689102000000
116.59,116.66,116.66,115.77,14459,1689170400000
116.709,116.62,116.79,116.48,12933,1689174000000
116.6566,117.07,117.12,116.62,19405,1689177600000
117.04,117.345,117.38,117.04,16620,1689181200000
117.43,117.19,117.55,117.13,21217,1689184800000
117.2,116.91,117.26,116.81,51444,1689188400000
117.2,116.86,117.37,116.735,7884,1689256800000
116.79,116.815,116.9,116.63,7038,1689260400000
116.68,116.79,116.9,116.68,10007,1689264000000
116.75,117.11,117.11,116.68,14196,1689267600000
117.12,116.82,117.26,116.8,11242,1689271200000
116.89,117.02,117.03,116.75,36432,1689274800000
